------- ELASTODYN V1.00.* TOWER INPUT FILE -------------------------------------
IEA 15 MW offshore reference model on UMaine VolturnUS-S semi-submersible floating platform
---------------------- TOWER PARAMETERS ----------------------------------------
30                     NTwInpSt    - Number of input stations to specify tower geometry
1.0                   TwrFADmp(1) - Tower 1st fore-aft mode structural damping ratio (%)
1.0                   TwrFADmp(2) - Tower 2nd fore-aft mode structural damping ratio (%)
1.0                   TwrSSDmp(1) - Tower 1st side-to-side mode structural damping ratio (%)
1.0                   TwrSSDmp(2) - Tower 2nd side-to-side mode structural damping ratio (%)
---------------------- TOWER ADJUSTMUNT FACTORS --------------------------------
1.0                    FAStTunr(1) - Tower fore-aft modal stiffness tuner, 1st mode (-)
1.0                    FAStTunr(2) - Tower fore-aft modal stiffness tuner, 2nd mode (-)
1.0                    SSStTunr(1) - Tower side-to-side stiffness tuner, 1st mode (-)
1.0                    SSStTunr(2) - Tower side-to-side stiffness tuner, 2nd mode (-)
1.0                    AdjTwMa     - Factor to adjust tower mass density (-)
1.0                    AdjFASt     - Factor to adjust tower fore-aft stiffness (-)
1.0                    AdjSSSt     - Factor to adjust tower side-to-side stiffness (-)
---------------------- DISTRIBUTED TOWER PROPERTIES ----------------------------
  HtFract       TMassDen         TwFAStif       TwSSStif
   (-)           (kg/m)           (Nm^2)         (Nm^2)
0.00000000000000E+00	1.95463655606333E+04	6.43259493034101E+12	6.43259493034101E+12
3.37837837837838E-02	1.82770327399035E+04	6.02115635878682E+12	6.02115635878682E+12
6.75675675675676E-02	1.71884041491163E+04	5.66759470975717E+12	5.66759470975717E+12
1.01351351351351E-01	1.66190377464604E+04	5.38572413635997E+12	5.38572413635997E+12
1.35135135135135E-01	1.63550716990110E+04	5.15068920763797E+12	5.15068920763797E+12
1.68918918918919E-01	1.61017202778323E+04	4.93183857376367E+12	4.93183857376367E+12
2.02702702702703E-01	1.58687267492644E+04	4.73701545144998E+12	4.73701545144998E+12
2.36486486486486E-01	1.54064095998841E+04	4.48729438037815E+12	4.48729438037815E+12
2.70270270270270E-01	1.49507332998515E+04	4.24749692918185E+12	4.24749692918185E+12
3.04054054054054E-01	1.45016978491667E+04	4.01735853669840E+12	4.01735853669840E+12
3.37837837837838E-01	1.40593032478296E+04	3.79661819413458E+12	3.79661819413458E+12
3.71621621621622E-01	1.36235494958397E+04	3.58501844506675E+12	3.58501844506675E+12
4.05405405405405E-01	1.31944365931976E+04	3.38230538544071E+12	3.38230538544071E+12
4.39189189189189E-01	1.24758068075431E+04	3.11530164961462E+12	3.11530164961462E+12
4.72972972972973E-01	1.17716098011374E+04	2.86236819438061E+12	2.86236819438061E+12
5.06756756756757E-01	1.10818455739803E+04	2.62303758351117E+12	2.62303758351117E+12
5.40540540540541E-01	1.04065141260722E+04	2.39684991827634E+12	2.39684991827634E+12
5.74324324324324E-01	9.74561545741256E+03	2.18335283744391E+12	2.18335283744391E+12
6.08108108108108E-01	9.37292730115893E+03	1.98210151727934E+12	1.98210151727934E+12
6.41891891891892E-01	9.20583088280387E+03	1.80219080599593E+12	1.80219080599593E+12
6.75675675675676E-01	9.03813817507235E+03	1.63286273407850E+12	1.63286273407850E+12
7.09459459459459E-01	8.61762565033723E+03	1.47372880482464E+12	1.47372880482464E+12
7.43243243243243E-01	8.23223564451252E+03	1.33050233383921E+12	1.33050233383921E+12
7.77027027027027E-01	7.87720112335192E+03	1.20117866955178E+12	1.20117866955178E+12
8.10810810810811E-01	7.52958965256685E+03	1.08140333788427E+12	1.08140333788427E+12
8.44594594594595E-01	7.30790230677597E+03	9.86466978578562E+11	9.86466978578562E+11
8.78378378378378E-01	7.06446955304606E+03	9.24071752995332E+11	9.24071752995332E+11
9.12162162162162E-01	6.71601792897828E+03	8.51054458697246E+11	8.51054458697246E+11
9.45945945945946E-01	6.52225644614445E+03	7.81498336394547E+11	7.81498336394547E+11
1.00000000000000E+00	6.02368004352626E+03	7.15303675513251E+11	7.15303675513251E+11
---------------------- TOWER FORE-AFT MODE SHAPES ------------------------------
0.9413693374950306     TwFAM1Sh(2) - Mode 1, coefficient of x^2 term
0.3468546636521823     TwFAM1Sh(3) -       , coefficient of x^3 term
-1.0732425042270761    TwFAM1Sh(4) -       , coefficient of x^4 term
1.3138921365298792     TwFAM1Sh(5) -       , coefficient of x^5 term
-0.5288736334500164    TwFAM1Sh(6) -       , coefficient of x^6 term
139.39115610617628     TwFAM2Sh(2) - Mode 2, coefficient of x^2 term
111.93048260721132     TwFAM2Sh(3) -       , coefficient of x^3 term
-656.9153343478758     TwFAM2Sh(4) -       , coefficient of x^4 term
845.7553274809915      TwFAM2Sh(5) -       , coefficient of x^5 term
-439.16163184650327    TwFAM2Sh(6) -       , coefficient of x^6 term
---------------------- TOWER SIDE-TO-SIDE MODE SHAPES --------------------------
0.928651504815363      TwSSM1Sh(2) - Mode 1, coefficient of x^2 term
0.3183110416167346     TwSSM1Sh(3) -       , coefficient of x^3 term
-0.9597593899992671    TwSSM1Sh(4) -       , coefficient of x^4 term
1.164027965180537      TwSSM1Sh(5) -       , coefficient of x^5 term
-0.4512311216133674    TwSSM1Sh(6) -       , coefficient of x^6 term
-1970.3543341226898    TwSSM2Sh(2) - Mode 2, coefficient of x^2 term
-2284.293209902991     TwSSM2Sh(3) -       , coefficient of x^3 term
11346.453188064506     TwSSM2Sh(4) -       , coefficient of x^4 term
-14750.85609454158     TwSSM2Sh(5) -       , coefficient of x^5 term
7660.050450502754      TwSSM2Sh(6) -       , coefficient of x^6 term
